Time(s),PlasmaConcentration(ug/L)
72.400332,88.61787
122.557566,79.79219
198.61257,70.138565
378.069618,56.345867
689.28396,48.340813
975.48258,45.024357
1287.89418,42.258755
1887.19758,39.210068
2486.62698,36.712902
3659.90298,33.92532
5433.3018,31.673939
7206.8262,29.974081
8980.4142,28.549982
10780.3398,28.228262
