MeanArterialPressure(mmHg),GlomerularFiltrationRate(L/min)
50,.08290216988
60,.09778616244
70,.1085306074
80,.1151368937
90,.1187077417
100,.1187877267
110,.1186872794
120,.1186872792
130,.1187011875
140,.1198800645
150,.1210674184
160,.1222696695
170,.1243685684
180,.1267288226
190,.1294338639
